wavelength_nm,absorbance
471.9640179910045,0.4220127902174371
472.9843495086124,0.4067243581620701
474.00468102622034,0.39492558497166125
475.02501254382827,0.38563534172169533
476.0453440614362,0.37801119412908607
477.0656755790441,0.37025935164630625
478.08600709665205,0.3619916452733729
479.10633861426,0.3537422229314212
480.1266701318679,0.3455908694829162
481.14700164947584,0.3379712195663775
482.16733316708377,0.33155743571452073
483.1876646846917,0.32445149862566713
484.2079962022996,0.3169933739453932
485.22832771990755,0.31021772272100845
486.2486592375155,0.3043273314779447
487.2689907551234,0.2982409979991214
488.28932227273134,0.29254136688677945
489.30965379033927,0.28646813533390003
490.3299853079472,0.2803194210434925
491.3503168255551,0.27473037409714074
492.37064834316305,0.2699307670766986
493.390979860771,0.2651017296106659
494.4113113783789,0.2605381528083493
495.43164289598684,0.2563575629009778
496.4519744135948,0.2523763373742021
497.47230593120275,0.2483834765549836
498.4926374488107,0.24469880432214947
499.5129689664186,0.24127196625882538
500.53330048402654,0.2378273330423534
501.55363200163447,0.23401115267224548
502.5739635192424,0.23029196566434987
503.5942950368503,0.2266278263005324
504.61462655445825,0.2235401716782512
505.6349580720662,0.22013210652374232
506.6552895896741,0.21625550085338524
507.67562110728204,0.21196031798178724
508.69595262488997,0.20790673853561936
509.7162841424979,0.2050559941115644
510.7366156601058,0.20313304204036503
511.75694717771376,0.20119777024775565
512.7772786953217,0.19923199247832135
513.7976102129296,0.19728371653533466
514.8179417305375,0.19546724205632202
515.8382732481455,0.19410014408207527
516.8586047657534,0.19242632415494543
517.8789362833613,0.19053045591573475
518.8992678009693,0.1886757511901243
519.9195993185772,0.1870045712032966
520.9399308361851,0.18564412196758873
521.960262353793,0.1844216340565598
522.980593871401,0.1828642648294248
524.0009253890089,0.18118174287685457
525.0212569066168,0.17967678135349557
526.0415884242248,0.1787397003217991
527.0619199418327,0.17806827550495227
528.0822514594406,0.17738198880196002
529.1025829770485,0.17618766025415403
530.1229144946565,0.17473256426983566
531.1432460122644,0.17360570086308458
532.1635775298723,0.1731893724998788
533.1839090474803,0.1731555421537846
534.2042405650882,0.17284735356740027
535.2245720826961,0.1723928927331635
536.244903600304,0.17158174663143627
537.265235117912,0.17058560915742504
538.2855666355199,0.16979480037358102
539.3058981531278,0.16931452678972325
540.3262296707358,0.16894200188041986
541.3465611883437,0.16900418714087045
542.3668927059516,0.16905737704918045
543.3872242235595,0.16905737704918045
544.4075557411675,0.16905737704918045
545.4278872587754,0.16905737704918045
546.4482187763833,0.16905737704918045
547.4685502939913,0.16899128076605996
548.4888818115992,0.16896136144263557
549.5092133292071,0.16935324591415474
550.529544846815,0.16997177414939174
551.549876364423,0.17062178611712114
552.5702078820309,0.17091296175489162
553.5905393996388,0.17133320114076722
554.6108709172468,0.17176243587878343
555.6312024348547,0.17233530292434995
556.6515339524626,0.1731141830890509
557.6718654700705,0.17406035724845487
558.6921969876785,0.17480794923179704
559.7125285052864,0.17595749657003323
560.7328600228943,0.177031267844041
561.7531915405023,0.17824984473240008
562.7735230581102,0.17944143556433712
563.7938545757181,0.18063341749854123
564.814186093326,0.18190948642014715
565.834517610934,0.1835928883528181
566.8548491285419,0.1851493775998524
567.8751806461498,0.18726484976197527
568.8955121637578,0.18922818314224085
569.9158436813657,0.19086523945627407
570.9361751989736,0.19243082183101579
571.9565067165815,0.19418432884504372
572.9768382341895,0.19622862039457517
573.9971697517974,0.19864612128237732
575.0175012694053,0.20131382984548318
576.0378327870133,0.20406239880228835
577.0581643046212,0.20641947438984137
578.0784958222291,0.2084135092980653
579.098827339837,0.2105338702385255
580.119158857445,0.21276383758930822
581.1394903750529,0.21530531789574467
582.1598218926608,0.21854833789358583
583.1801534102689,0.22194682104255362
584.2004849278768,0.22519120989832922
585.2208164454847,0.22800039970651714
586.2411479630927,0.23074202659808327
587.2614794807006,0.23337375375262656
588.2818109983085,0.2364518263693667
589.3021425159164,0.24029655720496454
590.3224740335244,0.24433967466549056
591.3428055511323,0.24819711632476543
592.3631370687402,0.25188921950067233
593.3834685863482,0.2552334372100958
594.4038001039561,0.258290683631119
595.424131621564,0.2617809780372615
596.444463139172,0.26562101564565554
597.4647946567799,0.27007312830188135
598.4851261743878,0.27485728678277754
599.5054576919957,0.2794749334735047
600.5257892096037,0.283476691869297
601.5461207272116,0.28707845042153024
602.5664522448195,0.2907808200319455
603.5867837624274,0.2949091000111076
604.6071152800354,0.2991125694010976
605.6274467976433,0.30373226937872666
606.6477783152512,0.3079573471689676
607.6681098328592,0.3119241019118648
608.6884413504671,0.31609950971419865
609.708772868075,0.32054624471425336
610.729104385683,0.32476105606998584
611.7494359032909,0.3292140487063124
612.7697674208988,0.33366225033986824
613.7900989385067,0.337868457445727
614.8104304561147,0.3427483382064679
615.8307619737226,0.34792555446568424
616.8510934913305,0.3530030396468194
617.8714250089384,0.35762293517558186
618.8917565265464,0.36219912502600876
619.9120880441543,0.36662503383034667
620.9324195617622,0.37153141176967563
621.9527510793702,0.37624253190221246
622.9730825969781,0.3802093844206762
623.993414114586,0.38450251400537244
625.013745632194,0.388933898241448
626.0340771498019,0.3938205255162943
627.0544086674098,0.398816465874763
628.0747401850177,0.403615388466238
629.0950717026257,0.4081832673934914
630.1154032202336,0.41292919562778996
631.1357347378415,0.4177933345222847
632.1560662554494,0.4228304383943536
633.1763977730574,0.42781992556541704
634.1967292906653,0.4328540961704834
635.2170608082732,0.4381918599102971
636.2373923258812,0.44262637296450846
637.2577238434891,0.446518622725545
638.278055361097,0.4507343140613782
639.298386878705,0.4548289592455796
640.3187183963129,0.4592905561317798
641.3390499139208,0.4641726857305559
642.3593814315287,0.46876794181649833
643.3797129491367,0.47331215905659924
644.4000444667446,0.4781939953286749
645.4203759843525,0.4831624607528879
646.4407075019604,0.4878967536947434
647.4610390195684,0.492038331150983
648.4813705371763,0.4959023237732298
649.5017020547842,0.5006131505790663
650.5220335723922,0.5051080889335269
651.5423650900001,0.5100829097695784
652.562696607608,0.5149360978005975
653.583028125216,0.5188583646606253
654.6033596428239,0.5229095974931912
655.6236911604318,0.5273780386690637
656.6440226780397,0.5314349424845011
657.6643541956477,0.5352045816848376
658.6846857132556,0.5388176822028135
659.7050172308635,0.5428333247290837
660.7253487484714,0.547133396379019
661.7456802660794,0.5517486964561443
662.7660117836873,0.5563352505166463
663.7863433012952,0.5599783681336133
664.8066748189032,0.5633242480276717
665.8270063365111,0.5676662653957412
666.847337854119,0.5719437508897582
667.8676693717271,0.5765307938280939
668.888000889335,0.5812261720943845
669.9083324069429,0.5851830515050405
670.9286639245508,0.5891772811821934
671.9489954421588,0.5932825839031701
672.9693269597667,0.5969482876760553
673.9896584773746,0.6006899630643027
675.0099899949826,0.6039999593253651
676.0303215125905,0.6077426124692797
677.0506530301984,0.6117748768418969
678.0709845478063,0.6159852882971257
679.0913160654143,0.619963971659166
680.1116475830222,0.6239355174048338
681.1319791006301,0.6273555111784856
682.1523106182381,0.6307739405430697
683.172642135846,0.634426542390011
684.1929736534539,0.638065357882041
685.2133051710618,0.641743185825203
686.2336366886698,0.6455015808353639
687.2539682062777,0.649266037930663
688.2742997238856,0.6525378039451275
689.2946312414936,0.6556577245044349
690.3149627591015,0.6590289282702804
691.3352942767094,0.662538777789772
692.3556257943173,0.6660954618057354
693.3759573119253,0.6695660055473953
694.3962888295332,0.6727125210608578
695.4166203471411,0.6754627522022976
696.4369518647491,0.6787118342852769
697.457283382357,0.6817315348886694
698.4776148999649,0.6847881946562921
699.4979464175728,0.6879266925732815
700.5182779351808,0.6907732326479663
701.5386094527887,0.6934462210916765
702.5589409703966,0.6964468554595535
703.5792724880046,0.6992602496171114
704.5996040056125,0.7019537709298385
705.6199355232204,0.7045498100025194
706.6402670408283,0.7070437713835172
707.6605985584363,0.7093733720368144
708.6809300760442,0.7120906528122606
709.7012615936521,0.714759730233301
710.7215931112601,0.716768724803237
711.741924628868,0.7187293204676337
712.7622561464759,0.720721693191223
713.7825876640838,0.7231056570596311
714.8029191816918,0.725580258878413
715.8232506992997,0.7282912820175875
716.8435822169076,0.7306217626509856
717.8639137345156,0.7330512899334976
718.8842452521235,0.7351002747102329
719.9045767697314,0.7369087315927723
720.9249082873393,0.7383454457705425
721.9452398049473,0.7400603314357057
722.9655713225552,0.7417846035552766
723.9859028401631,0.7437412881970035
725.0062343577711,0.7459236388467809
726.026565875379,0.7476945499116896
727.0468973929869,0.7491771208302638
728.0672289105948,0.7501660229123357
729.0875604282028,0.7506327056924158
730.1078919458107,0.7514073815077468
731.1282234634186,0.7525550711102147
732.1485549810266,0.7537572217033605
733.1688864986345,0.7551967713725662
734.1892180162424,0.756565727082581
735.2095495338503,0.757594717147019
736.2298810514583,0.7586578308842514
737.2502125690662,0.7596513284179607
738.2705440866741,0.7603170822519361
739.2908756042821,0.7608261018524174
740.31120712189,0.7614230216874034
741.3315386394979,0.7620010708380075
742.3518701571059,0.7629094058530806
743.3722016747138,0.7638531356233159
744.3925331923217,0.7650317223048757
745.4128647099296,0.7660559213665432
746.4331962275376,0.7667874781569388
747.4535277451455,0.7673138040327342
748.4738592627534,0.767814512710042
749.4941907803614,0.7679375143730088
750.5145222979693,0.7680527917662027
751.5348538155772,0.7684786043593828
752.5551853331851,0.7692382227374348
753.5755168507931,0.7701701216640937
754.595848368401,0.7710942963209798
755.6161798860089,0.7716712699403496
756.6365114036169,0.771608302475365
757.6568429212248,0.7715163934426236
758.6771744388327,0.7715163934426236
759.6975059564406,0.7715163934426236
760.7178374740486,0.7715163934426236
761.7381689916565,0.7715163934426236
762.7585005092644,0.7715163934426236
763.7788320268724,0.7715163934426236
764.7991635444803,0.7715163934426236
765.8194950620882,0.7715163934426236
766.8398265796961,0.7715163934426236
767.8601580973041,0.7715496371353173
768.880489614912,0.7715641079191957
769.9008211325199,0.7714273199013176
770.9211526501279,0.7710669191622908
771.9414841677358,0.770506469613701
772.9618156853437,0.7700387113023868
773.9821472029516,0.7695172742049288
775.0024787205596,0.7690853017510436
776.0228102381675,0.7687460205344339
777.0431417557754,0.7685985749797806
778.0634732733834,0.768379459934702
779.0838047909913,0.7680235568717455
780.1041363085992,0.7674773825559007
781.1244678262071,0.7667132665017784
782.1447993438151,0.7660243398584842
783.165130861423,0.7657387374280182
784.1854623790309,0.7653640614562462
785.2057938966389,0.7647696837859956
786.2261254142468,0.7642341670069261
787.2464569318547,0.7633293519122559
788.2667884494626,0.7625182058105286
789.2871199670706,0.7619296946742826
790.3074514846785,0.7609509612511525
791.3277830022864,0.7598966473149271
792.3481145198944,0.7586196006376538
793.3684460375023,0.7573728643860718
794.3887775551102,0.7564635516153311
795.4091090727181,0.7559059375581769
796.4294405903261,0.7556448767949644
797.449772107934,0.7553514523191588
798.4701036255419,0.7542936184625306
799.4904351431499,0.7528583709182617
800.5107666607578,0.7513871419654301
801.5310981783657,0.7502255682324842
802.5514296959736,0.7496765584252039
803.5717612135816,0.7491579568191814
804.5920927311895,0.748271327979926
805.6124242487974,0.747071230673682
806.6327557664054,0.7458605736062294
807.6530872840133,0.744642094493437
808.6734188016212,0.7435925715599823
809.6937503192291,0.742502765093028
810.7140818368371,0.7415197295449608
811.7344133544451,0.7408088033991485
812.754744872053,0.7395893465306886
813.775076389661,0.7379215886886971
814.7954079072689,0.7362774925338582
815.8157394248768,0.7347990281890875
816.8360709424848,0.7332958266259298
817.8564024600927,0.7317605546768793
818.8767339777006,0.7299913057966052
819.8970654953085,0.7282421986830807
820.9173970129165,0.7270966601430813
821.9377285305244,0.7266432748400788
822.9580600481323,0.7260322753234811
823.9783915657403,0.724792872239405
824.9987230833482,0.7235204210137687
826.0190546009561,0.722199277555893
827.039386118564,0.7212494857005193
828.059717636172,0.7202784765471619
829.0800491537799,0.7189367024447023
830.1003806713878,0.7170523717223678
831.1207121889958,0.715062932265781
832.1410437066037,0.7133924367079206
833.1613752242116,0.7122092545747237
834.1817067418195,0.7112197658392512
835.2020382594275,0.7103435012100708
836.2223697770354,0.7092299352803972
837.2427012946433,0.7074353625283357
838.2630328122513,0.7051168105140808
839.2833643298592,0.7024841056038701
840.3036958474671,0.6999398875815647
841.324027365075,0.6981298662899573
842.344358882683,0.6971742079005792
843.3646904002909,0.6968838144673426
844.3850219178988,0.6964995564900296
845.4053534355068,0.6958922724449684
846.4256849531147,0.694937787362391
847.4460164707226,0.6937042508123198
848.4663479883305,0.6923273752813985
849.4866795059385,0.6908570263086676
850.5070110235464,0.6887077238004506
851.5273425411543,0.6867442926446183
852.5476740587623,0.6849820836051498
853.5680055763702,0.6834387940596263
854.5883370939781,0.6820392345972197
855.608668611586,0.6804423640411192
856.629000129194,0.6784228097099745
857.6493316468019,0.6768552718238979
858.6696631644098,0.6758337127025327
859.6899946820178,0.6750202199872035
860.7103261996257,0.6744657347481853
861.7306577172336,0.6734891523875233
862.7509892348415,0.6718862197462845
863.7713207524496,0.670129779465254
864.7916522700575,0.6684736569157053
865.8119837876654,0.667060897751788
866.8323153052734,0.6663980771848149
867.8526468228813,0.6659179013765237
868.8729783404892,0.6654471120226404
869.8933098580972,0.6647279727292214
870.9136413757051,0.6631744167491893
871.933972893313,0.6614676464560661
872.9543044109209,0.6600318122583968
873.9746359285289,0.6584911626531754
874.9949674461368,0.6570703858927852
876.0152989637447,0.6561972500817409
877.0356304813527,0.6553844417953788
878.0559619989606,0.6551104746573557
879.0762935165685,0.6554663777203122
880.0966250341764,0.65570925222811
881.1169565517844,0.6552989859500424
882.1372880693923,0.6542307878833392
883.1576195870002,0.6526730275539372
884.1779511046082,0.6512368022540009
885.1982826222161,0.6504062965900581
886.218614139824,0.6504579220893001
887.2389456574319,0.6509948077263039
888.2592771750399,0.6512826589948051
889.2796086926478,0.6511922165955647
890.2999402102557,0.6506488777711555
891.3202717278637,0.649702508060618
892.3406032454716,0.648516294884852
893.3609347630795,0.6472735674315067
894.3812662806874,0.6459560416696003
895.4015977982954,0.6451712949708945
896.4219293159033,0.6446640353306148
897.4422608335112,0.6448317204275849
898.4625923511192,0.6452567508162309
899.4829238687271,0.6454022408595494
900.503255386335,0.6444074722434724
901.5235869039429,0.643027858996682
902.5439184215509,0.6413695853846649
903.5642499391588,0.6403929052484362
904.5845814567667,0.6401547239678425
905.6049129743747,0.6400626193839674
906.6252444919826,0.6388103099250807
907.6455760095905,0.6369128772768021
908.6659075271984,0.6347515483738753
909.6862390448064,0.6327563401588504
910.7065705624143,0.6314570984279257
911.7269020800222,0.6306107531221696
912.7472335976302,0.6297383995156594
913.7675651152381,0.6289606926577592
914.787896632846,0.6278445845633502
915.8082281504539,0.626347445085331
916.8285596680619,0.6253033975836141
917.8488911856698,0.6242916160189234
918.8692227032777,0.6233299933199736
919.8895542208857,0.6221408468772052
920.9098857384936,0.6208716222452715
921.9302172561015,0.6191407991627285
922.9505487737094,0.6173299956665872
923.9708802913174,0.615844784807711
924.9912118089253,0.6145269657191044
926.0115433265332,0.6125632412365716
927.0318748441412,0.6105688152260808
928.0522063617491,0.6085483809148353
929.072537879357,0.606942612782161
930.0928693969649,0.6062719701698484
931.1132009145729,0.6055470621179913
932.1335324321808,0.6042811618553269
933.1538639497887,0.6027388500654708
934.1741954673967,0.6012985181917312
935.1945269850046,0.6002629771643212
936.2148585026125,0.5995368958056632
937.2351900202204,0.59825593810572
938.2555215378284,0.5967118663556623
939.2758530554363,0.5953377285406098
940.2961845730442,0.5938227939094429
941.3165160906522,0.592577230964662
942.3368476082601,0.5919220368918949
943.357179125868,0.5912547186488515
944.377510643476,0.590881020432747
945.3978421610839,0.5903864716161444
946.4181736786918,0.5891583127222442
947.4385051962997,0.5868686045001794
948.4588367139077,0.5840312553287685
949.4791682315156,0.5811717111037065
950.4994997491235,0.5791215530201702
951.5198312667314,0.5779289844325655
952.5401627843394,0.5766161518978631
953.5604943019473,0.5735850115531611
954.5808258195552,0.5695470761976728
955.6011573371632,0.5654291604285857
956.6214888547711,0.5628853335085475
957.641820372379,0.5628140551203895
958.662151889987,0.5641903439979103
959.6824834075949,0.5657571974550197
960.7028149252028,0.5666516483396148
961.7231464428107,0.5661917120736402
962.7434779604187,0.5643435583110015
963.7638094780266,0.560406918442662
964.7841409956345,0.5558295552854341
965.8044725132424,0.551574949274036
966.8248040308504,0.5485459599918027
967.8451355484583,0.5476617755417161
968.8654670660662,0.5475688887533072
969.8857985836742,0.5467914752221074
970.9061301012821,0.5459914755349891
971.92646161889,0.5445758808796363
972.946793136498,0.5437529039343328
973.9671246541059,0.5439403396957854
974.9874561717138,0.543116873872648
976.0077876893217,0.541353687077512
977.0281192069297,0.5394974179428335
978.0484507245376,0.5374382645071566
979.0687822421455,0.5357208366772581
980.0891137597534,0.5328394885008118
981.1094452773614,0.527899329103172
